<?xml version="1.0" encoding="ISO-8859-1"?>
<Fieldml version="0.4.0"
    xsi:noNamespaceSchemaLocation="http://www.fieldml.org/resources/xml/0.4/FieldML_0.4.xsd"
    xmlns:xsi="http://www.w3.org/2001/XMLSchema-instance"
    xmlns:xlink="http://www.w3.org/1999/xlink">
  <Region name="grid">
    <Import xlink:href="http://www.fieldml.org/resources/xml/0.4/FieldML_Library_0.4.xml" region="library">
      <ImportType localName="real.1d" remoteName="real.1d"/>
      <ImportType localName="real.2d.component" remoteName="real.2d.component"/>
      <ImportEvaluator localName="real.2d.component.argument" remoteName="real.2d.component.argument"/>
    </Import>

    <Import xlink:href="http://www.fieldml.org/resources/xml/Uncertainty1.xml" region="uncert">
      <ImportEvaluator localName="randomTag" remoteName="randomTag"/>
    </Import>

    <EnsembleType name="grid.nodes.type">
      <Members><MemberRange min="1" max="20"/></Members>
    </EnsembleType>

    <EnsembleType name="grid.realisation.type">
      <Members><MemberRange min="1" max="100"/></Members>
    </EnsembleType>

    <ArgumentEvaluator name="grid.nodes.argument" valueType="grid.nodes.type"/>
    <ArgumentEvaluator name="grid.x.argument" valueType="real.1d"/>
    <ArgumentEvaluator name="grid.y.argument" valueType="real.1d"/>

    <ArgumentEvaluator name="grid.realisation.argument" valueType="grid.realisation.type"/>
    <ReferenceEvaluator name="grid.realisation.sample" evaluator="randomTag" valueType="grid.realisation.type"/>

    <ParameterEvaluator name="grid.nodes.nodalPosition" valueType="real.1d">
      <SemidenseData data="grid.nodes.locations.datasource">
        <DenseIndexes>
          <IndexEvaluator evaluator="real.2d.component.argument"/>
          <IndexEvaluator evaluator="grid.nodes.argument"/>
        </DenseIndexes>
      </SemidenseData>
      <Arguments>
        <Argument name="real.2d.component.argument"/>
        <Argument name="grid.nodes.argument"/>
      </Arguments>
    </ParameterEvaluator>

    <ParameterEvaluator name="grid.nodes.nodalValue" valueType="real.1d">
      <SemidenseData data="grid.values.realisations.datasource">
        <DenseIndexes>
          <IndexEvaluator evaluator="grid.realisation.sample"/>
          <IndexEvaluator evaluator="grid.nodes.argument"/>
        </DenseIndexes>
      </SemidenseData>
      <Arguments>
        <Argument name="grid.nodes.argument"/>
      </Arguments>
    </ParameterEvaluator>

    <TextInlineResource name="grid.nodes.locations.resource">
      <TextString>
       <!-- X coords -->
1 1 1 1 1 2 2 2 2 2 3 3 3 3 3 4 4 4 4 4
       <!-- Y coords -->
1 2 3 4 5 1 2 3 4 5 1 2 3 4 5 1 2 3 4 5
      </TextString>
      <TextDataSource name="grid.nodes.locations.datasource" count="1" length="40"/>
    </TextInlineResource>

    <TextInlineResource name="grid.values.realisations.resource">
      <TextString>
10.724514 10.714881 10.327879 10.158196  9.998664 11.874681 11.919272
11.277933 11.040370 11.136231 12.791554 12.565457 12.308052 12.224076
12.093719 14.034830 13.596919 13.692232 13.120851 12.888418 10.172525
11.789183 10.833656  7.890534  6.782328 11.170132 11.596453 10.073188
14.200741  9.053250 14.260538 13.376039 11.773926 14.302162 12.944052
 9.092555 15.344412 12.922528 12.934207  9.393864  9.793632 10.334583
 9.940177 10.435096 10.795004 10.737905 11.297936 10.820405 10.624179
11.922403 13.010847 12.897941 11.964830 11.965659 12.871278 13.514456
14.212517 13.833278 13.741839 14.311036 14.044525 10.473709  8.920492
 9.789076 10.718020 11.212037  8.629625 12.576458  7.754661 10.050696
15.715482 10.315985 10.769428 13.421350 11.994653 13.354750 13.116438
11.180688 13.434071 12.015006 11.159091 11.154836 11.340078 10.584326
10.334661 12.422654 11.487469 11.807164 11.791809 12.609740 12.610004
13.395244 13.281054 13.175786 13.038496 14.577831 14.341008 13.960100
13.485801 13.869013 11.680432 12.077301 11.443566 11.866543 11.023578
13.093527 12.587832 13.024263 12.617534 13.771340 14.327484 14.174995
13.741546 13.569181 13.655244 15.885025 14.587415 14.530626 15.627889
14.521384 11.704005 12.421768 10.922727 12.699238 11.904087 12.502357
12.568789 12.735545 12.788731 12.771250 13.366918 13.631274 13.798454
14.044617 13.861298 15.154681 14.815171 14.712783 14.796117 15.216837
10.136735 16.120117 13.406575  9.631363  9.860057 10.671467 13.877167
13.169896 10.505948  8.944619 13.212682 12.175760 13.538083 12.019315
12.188422 19.774059 15.684708 14.082244 17.374540 13.782812 17.006437
19.100181 11.244038 14.994419 11.234585  8.537671  9.865980 14.025553
17.849785 13.893395 13.247152 18.383429 11.469409 17.962295 16.853651
13.789826 17.230062 14.279388 18.098103 12.492388 12.262830 11.546581
10.928659 11.299685  7.593464 15.045968 15.679504 11.158302 12.468803
10.620084  9.702125 11.298816 14.273690 13.865732 11.811570 12.563807
14.515976 13.555697 13.684730 11.787326 12.744450 12.487041 12.082485
11.682093 11.372516 13.844082 13.435196 12.987885 12.750157 12.312499
14.866717 14.527874 14.090206 13.760118 13.291336 15.910383 15.540264
15.123521 14.762329 14.443458 12.477831 12.159588 12.093932 11.796042
12.237896 13.581064 13.295525 12.954744 12.770942 12.824573 14.407636
14.502883 14.474524 14.056507 14.300902 15.531425 15.624051 15.423475
14.948711 15.581975 11.113649 11.350010 10.990585 10.959323 10.535242
12.093404 12.367763 12.768331 12.409419 12.051136 13.367151 13.049665
13.794370 12.521072 13.197409 14.457081 14.583461 14.052417 14.543706
13.660463 11.987662 10.208563 10.978440 10.402943 10.577500 11.524648
10.771443 11.828085 11.545267  9.554981 11.535196 12.865286 12.683588
11.747712 10.730481 13.762663 13.453091 12.334536 12.171115 12.094408
10.970589 11.414351 11.871978 12.352290 12.794436 11.895784 12.405869
12.751958 13.386819 13.860907 12.825427 13.322522 13.823348 14.244623
14.711420 13.852327 14.364984 14.795544 15.330988 15.776310  9.387773
10.695618  8.863460 12.562951  9.386124  9.988540 10.721239 10.801762
 9.482269  8.518926 12.623332 12.161506 11.951888  9.358287 10.408216
 9.466466 12.926000  9.559801 12.885224 12.587405 10.544771  9.196549
 9.228531  9.847439  7.590436 11.471134 10.834663 10.740749 12.903835
 9.251379 12.262722 14.686515  9.504999  9.859468 15.599335 10.430644
12.391949 13.497138 13.307413 12.677165 10.692691  4.439395 12.136715
 9.689314  9.056534 12.813126 23.181430  5.556829  9.389683  8.061723
 8.127389 20.147862 14.086771 12.830155  8.987428 15.714966 14.376341
 2.362286 14.367734 18.352093  8.980135 10.229678  9.812684 11.078897
10.754125 11.647681 11.432572 10.643609 12.889375 11.993527 11.935426
12.645428 12.245176 12.952714 14.075885 12.482103 14.075958 12.822075
14.387073 15.583775  8.924879 12.545270  5.728159  9.815095 10.516478
 8.480542 12.743428 12.795831 10.408445  8.916739  9.000480  9.750405
 9.799511 11.866609  9.752950 12.491886 17.460128 10.331213 13.264999
12.526405 11.420372 12.006803 12.956351 13.263728 12.950284 13.176551
12.818195 13.317820 13.613171 14.406571 13.695151 13.610169 15.622575
15.569038 15.662696 15.384805 15.056782 15.758232 17.218422 17.008304
 9.730316 10.391965 10.393174 10.623278 11.342845 10.696330 10.942186
11.461587 11.762434 12.144614 11.632580 11.573564 12.678761 12.587385
13.348333 12.638978 12.742092 13.268146 13.992908 14.159015 11.958368
 7.243831  7.146626 14.406328  7.525165  8.909322  9.931114  5.977064
 7.311960 12.687807  8.064529  7.805899  7.505557  9.048847 11.081791
 8.548336 11.582498 12.851868 11.897405 11.536193 11.222398 10.504520
 9.932827 11.070491  9.231095 11.084054 11.157997 11.653226 12.107614
12.870594 14.308123 13.410811 12.860464 11.774269 15.887857 11.849656
15.737407 14.358034 14.587285 14.192145 11.385038 12.174659 10.514406
10.885003 10.633256 14.062626 12.983360 13.756132 12.277902 13.165760
14.966434 14.262106 14.065017 13.474600 14.028890 14.425841 16.710635
14.677190 15.398078 14.545367 11.026464 10.840091 10.947450 10.819168
10.785404 12.285354 12.252279 12.233195 11.860032 11.774045 13.510208
13.298839 13.159333 13.376523 13.074068 14.610152 14.560634 14.442469
14.536859 14.294617 11.500956 11.704430 11.806704 11.994519 12.314337
12.589220 12.744466 13.087331 13.337951 13.326650 13.301791 13.908119
14.043559 14.220115 14.377137 14.547549 14.981261 14.968292 15.275820
15.647548 10.371657 10.319420 10.386994 10.465941 10.490181 11.355565
11.470986 11.480783 11.512464 11.644484 12.475546 12.513313 12.503344
12.640125 12.712562 13.487146 13.630397 13.591260 13.729694 13.672028
10.879081 11.025980 10.607334 10.781185  9.849101 11.555683 11.778493
10.613494 10.296305 11.268492 12.017597 12.544175 11.846088 12.035896
12.113253 13.614429 13.146183 12.558951 13.278868 13.353150 11.234790
11.878534 10.791177 11.565002 13.874858 12.808394 12.638423 13.250974
12.770566 12.410064 11.977880 13.371157 12.402914 13.329890 13.840082
15.053394 14.795131 14.748375 14.890765 14.108060 11.976789 11.170810
10.990867 11.744032 10.451869 12.061387 12.810269 12.680671 11.654458
11.645410 13.484656 13.875909 13.288981 13.544959 12.997121 14.948139
14.689438 14.291808 13.752151 14.207821 10.521237 13.077175 10.760965
13.256935 13.313692 10.253434 11.355623 11.928106 14.500073 13.815499
12.294433 11.985276 13.155610 14.120591 14.298142 14.834578 15.525908
16.075014 13.187482 13.728640 11.636367 12.239083 15.320955 17.299627
13.114912 11.435728 12.109260 11.591978 15.907688 11.838123 15.302451
11.078174 11.434178 15.113703 13.147161 14.578755 13.250204 12.210345
13.653848 16.203928  9.961217 10.094342  9.848356  9.648887  9.854826
10.635589 10.843748 11.005013 11.034849 10.987819 12.162867 12.190165
12.042667 11.815088 12.008509 13.373749 12.973709 12.742357 12.702651
13.064106 11.799632 11.564671 11.837993 11.127456 10.956682 13.043711
12.797908 12.734373 12.342929 12.187500 14.221891 13.950459 13.750113
13.477467 13.399926 14.940008 15.096866 14.721852 14.740698 14.440795
 9.648200 12.062064 10.787289 11.151306  9.325394 10.251399 10.996716
 9.584416 10.619976 11.881720 12.768028 10.848430 11.469412 12.594304
13.416446 12.549838 14.102138 12.549647 12.157464 12.776947  8.719674
 9.405706 10.195360  7.318703  7.867363 13.147925  8.901283  9.474608
12.362843 12.915874 13.517234 10.884874 12.598216 10.715900  7.648113
14.576551 10.218073 12.335711 10.474347 10.190169 13.474685 13.223294
12.220860 11.787698 11.798399 14.462510 13.949735 13.656625 13.100909
12.783612 15.801802 15.477822 14.573346 14.193722 13.247653 16.748148
16.562176 15.412307 14.904634 15.244502 12.413133 10.397364  8.531180
13.578231  9.824741  9.916230 11.433873 15.865971 15.006045 14.517929
14.565658  8.470961 20.571075 10.115109  9.927866 15.202151 17.311384
14.957869 15.224117 16.051677 10.524822 10.861355  9.084824  8.257762
11.093736 13.807051 10.838861 14.257415 12.100954 14.022965 13.360565
 9.815201 11.839009 12.336360 12.654789 12.452202 11.283278 14.441226
13.109051 15.621752 13.262101 14.977056 12.546023  8.509171 12.484924
10.214436 13.322866 13.116405 16.762790 12.835014 12.358148 12.059874
11.212741 12.187763 14.180118 13.980145 15.792887 18.305587 16.907057
15.917309  8.955811 10.673272  9.297935  8.080321  9.701370 10.631863
 9.571984 11.453748 10.831095  9.673601 11.755030 10.858274 11.066395
11.463402 13.656131 11.168123 10.506830 12.192628 11.409000 11.581478
11.130159 11.772594 12.072794 10.717740 11.871424 12.914922 11.562287
11.935741 12.634504 12.551427 13.304009 12.892972 12.442868 12.905821
12.772105 14.329540 14.470147 13.308455 13.858446 14.828381 12.558191
11.928576 10.887715 11.892708 12.559535 13.017591 14.396589 10.468142
12.119218 12.861365 14.476464 13.068097 12.361965 11.413488 10.723387
15.757290 14.651056 14.359059 12.878992 15.642190 12.578740 13.501760
10.321881 12.298983 12.655687 12.088791 12.161495 11.254763 11.147705
15.840514 13.910023 13.076214  9.952942 13.240495  9.573984 13.902734
12.461593 11.734861 12.005014 12.668096 11.581022 11.147617 11.694917
11.485408 11.312402 12.770718 12.586047 12.535470 12.426562 12.834940
12.886750 12.962891 13.028320 13.715607 13.866704 14.440071 14.524891
14.244851 14.622112 13.971735 11.435395 11.972054 11.253237 11.643648
11.711754 11.498999 11.470746 12.947520 13.296937 13.153451 13.167231
12.928930 13.581670 13.223847 14.103288 14.272871 13.907608 15.386928
15.329175 14.777470 10.985586 11.733249 11.101871 10.478471 11.494876
12.403722 11.085121 12.000145 11.971877 12.549858 12.391994 13.874655
13.829678 13.422301 12.782623 13.899631 13.580772 14.567540 13.591556
14.194983  8.066588 10.096238 13.946389 11.792369 14.636364  9.330918
13.453452 14.482366 12.863285 15.553997  7.813843 11.896169 15.734234
14.188923 11.976226 17.545978 15.423855 11.471469 13.691372 16.487785
11.652098 12.442877 12.012307 11.939904 12.509270 11.733545 12.725128
13.265225 13.971023 13.065926 12.662465 13.461430 13.788261 13.069210
13.825581 13.814778 14.791175 14.499985 15.680547 14.609804 10.148864
10.791627  9.856578 11.535902 10.313014 10.021967 10.111181 11.609753
10.121724  8.994613 13.420297 13.696048 11.705418 11.957340 12.625341
15.058232 16.194072 14.344564 14.284200 14.829652 12.744852 14.141663
12.310034 12.750609  8.381467 13.713026 10.384770 14.025822 10.973931
13.250429 13.732015 15.237833 16.533840 20.651799 14.419586 20.888963
13.572456 12.549972 16.659905 18.685576 16.795712 10.825080 17.371805
19.216751 12.334916 21.531007 10.122332  8.676351 13.215664 13.497677
16.793500 12.537724 14.754273 11.424803 17.395381  9.347819  7.924605
22.566999 22.490253 19.996658 10.806007 11.764032 12.716275 11.192884
 9.814185 12.310138  9.804439 10.971071 11.843258 12.501740 13.811138
13.497546 12.307554 13.001819 15.505643 15.953628 13.411196 15.812515
13.922870 13.521244 10.934703 11.131001 11.291666 11.508523 11.714037
12.007379 12.200402 12.385830 12.563082 12.699227 13.017361 13.214032
13.450135 13.633089 13.819061 14.139193 14.310973 14.487050 14.705839
14.881906 10.127670 15.446425  9.693784  8.032421 11.674175 13.348833
 9.863010 10.677544 20.675128 12.757773 15.443696  7.227457 13.014679
10.033755 13.062552  9.421522 17.477509 18.082044 12.343719 14.148401
10.360332 10.336823 10.209238 10.053887 10.346779 11.150469 11.856118
11.193936 11.141191 12.243532 13.010157 12.523726 12.739906 11.641868
12.336676 13.538512 14.057350 13.453008 14.137584 13.752573 11.789914
12.031331 12.298392 12.583714 12.846823 12.702443 13.024175 13.302412
13.673527 13.849274 13.662974 14.015658 14.377876 14.683704 14.941979
14.732020 15.077241 15.388439 15.660308 15.920731 10.679747 10.677230
10.699624 10.623949 10.647385 11.596589 11.605848 11.547868 11.548997
11.536681 12.591681 12.502136 12.420668 12.485152 12.417656 13.437667
13.411746 13.402174 13.346639 13.329941 12.043192  7.785275 12.146869
15.145501 10.129375  9.597868  7.348243 14.082182 10.663553 14.220363
12.708573  9.950296 13.335287 16.403604 11.787791 13.582175 14.580944
16.043892 15.895173 20.792243 13.154216 12.784070 12.895886 11.665049
 9.216755 13.955933  7.865304 13.955846 12.577191 13.382218 14.846660
14.894115 15.180059 10.402836 17.428056 12.393932 15.566950 17.009353
15.055468 14.637419  9.059752  9.898572 10.113268 10.418841 11.312558
 9.921532 11.417839 10.810843 11.574611 12.178487 11.546850 11.244068
12.404940 12.854239 13.015164 12.092706 12.660595 12.507110 13.649986
13.969481  9.739217  9.526168  9.617636  9.028005  8.982071 10.930381
10.648217 10.520189 10.035452 10.080017 11.441858 10.989622 10.827343
10.565565 11.259716 12.977573 11.911576 12.163589 12.652545 11.937430
11.377462 11.084949 11.569961 11.412198 10.212284 11.447993 13.318836
11.941690 10.503261 12.217042 13.538337 13.146633 12.857935 12.736839
12.425648 15.147300 14.396812 14.469747 13.955552 14.125491 11.670310
11.116302 11.983060 11.639117 12.169412 13.140411 14.225025 13.395859
12.745249 13.933271 13.734159 14.274640 12.494893 12.524003 13.371122
14.571613 15.083655 14.171079 15.056451 14.073895 10.261469 10.683232
10.338753 11.481366 10.718438 11.577228 12.456428 12.102221 12.398841
12.555785 13.181104 11.713829 12.777154 13.481197 12.862946 13.402887
13.696346 14.293886 13.349095 14.217317 10.515826 10.640715 10.513340
10.717692 10.508872 11.688988 11.579530 11.897818 11.502149 11.804216
12.468873 12.528420 12.658184 12.456278 12.761209 13.455794 13.266060
13.652153 13.861573 13.816586 10.616823 10.473852 10.232774 10.025548
 9.745063 11.540339 11.422855 11.270107 11.163745 10.975527 12.555838
12.447451 12.268416 12.140798 11.957043 13.721663 13.550567 13.335792
13.175030 12.967446  9.967516  8.184592 10.958546 10.761198  9.571905
11.370313  8.779928 11.276586 10.260437 10.040269 12.206176 12.761842
14.068726 10.780405 14.339649  9.100141 10.624229  9.993919 10.716328
12.907485 11.251887 11.385692 11.473060 11.554628 11.699478 12.331692
12.447098 12.555292 12.664187 12.797821 13.415359 13.547120 13.644499
13.760870 13.853015 14.529219 14.622138 14.729154 14.831040 14.985295
13.410719 13.107212 13.576292  9.898460 12.133976 14.347014 13.735759
12.851752 13.880084 13.453463 12.361371 15.483157 15.132952 14.950950
15.673956 13.244986 15.102208 14.431283 15.013696 14.410614 10.588876
11.730940 12.072342 11.820550 12.369992 11.772960 12.685214 12.983302
13.810462 14.316057 13.273518 13.854293 13.710838 15.264100 14.948986
14.016403 14.816476 14.427328 16.034588 16.659860  9.478880 10.695243
 9.995718 10.692142  9.841792 10.944337 12.172270 10.763562 11.133080
10.955703 12.502439 12.198327 13.536584 12.633223 12.913648 12.101305
14.348782 14.054128 12.500001 13.168761 12.121698 13.425477 14.377378
19.095537 13.470618 24.371168 13.288495 18.666763  9.008335 17.168059
 9.954366 13.268600  6.264588 14.483654  5.747162  9.094185 15.351519
10.167073 15.397858 12.132472  9.264767 10.041550  8.518073  7.578129
 8.880258 10.492976 11.252126 10.577580  9.892981  9.933204 10.946069
12.020751 10.054466 10.243986 10.541208 11.448905 11.540649 11.847600
 9.793682 12.961070 17.798608 10.857187 12.880648 12.442800 14.910386
11.801428 12.298487 12.296362 16.232346 14.155573  6.246590 14.093144
18.560743 15.309833 14.733795 13.725188 16.634823 14.500035 16.396299
16.634541 10.441668 10.477548 10.569915 10.645149 10.628378 11.556195
11.503085 11.590302 11.677326 11.705094 12.422231 12.566241 12.570118
12.575148 12.804620 13.403055 13.501434 13.502760 13.662615 13.703425
11.100401 12.056761 10.529496  7.685502 12.786479 13.638120 13.255077
14.087315 11.481276 11.323343 14.250277 10.316156 12.699400 11.345751
12.646895 12.995393 15.199801 14.402276 15.979397 12.617916 11.386380
13.613864 12.477628 13.217677 12.074907 12.052919 15.686390 12.306929
14.929293 13.072137 14.900835 16.773614 13.283401 17.056857 14.460816
13.721778 14.324758 15.690762 14.695539 13.684471  9.450791  9.845899
 9.868110  9.587049  9.475766 10.610754 11.114945 11.707434 11.282769
11.135244 11.051210 12.446190 11.490913 12.063640 12.517626 12.933704
13.549728 12.601061 13.058013 12.694835 10.280996 10.183050 10.412860
10.061869 10.331427 10.819564 11.010929 10.989724 11.230651 11.252256
12.217697 11.962471 12.122907 12.064865 12.188565 12.814787 12.801474
12.596016 12.695459 13.265058  9.870990  9.216203 12.908012 10.013192
 9.352794 11.368376 11.621764 11.068599  9.527222 12.595415 11.758835
12.563271 11.624740  8.755115 12.930126 14.243709 13.746314 12.982353
14.873143 15.376714 10.778793 11.138526 10.795909 11.001484 11.137585
 9.688846 11.218447 11.023187  9.536636 11.110746 15.443635 12.120368
14.614466 14.501159 13.794902 13.515597 14.105502 10.876143 13.394464
13.995388 10.117709  9.849501  8.897060  9.285174  9.585041 11.378352
10.123446  9.348161 10.015993  9.875400 12.324071 11.061054 10.351367
10.554593  9.705234 13.227776 13.082511 12.973095 11.303607 10.734322
10.421626 10.900365 10.509023 11.037858 10.191380 11.349388 12.252283
12.430409 11.773719 12.641341 12.976479 13.075982 12.559000 13.659832
13.322682 13.901073 14.226241 13.697057 13.825273 13.781001 10.239212
10.550886 10.411378 10.133161 10.181337 11.462624 11.431097 11.231902
11.002021 10.990357 12.626436 12.413594 12.368177 12.466472 12.226952
13.631627 13.468337 13.243402 13.433093 12.981431 13.949434 13.961106
14.197595 14.416467 14.585326 14.674417 15.069616 15.145131 15.239911
15.552226 15.633684 15.798756 15.988780 15.987839 16.210117 16.714675
16.730603 17.145512 17.032699 17.127270 10.693423 10.434008 10.318623
10.132876 10.677629 11.221763 11.316130 11.359467 11.147572 11.348261
11.938599 11.866187 12.188868 11.961690 11.972065 12.614501 12.974555
12.893365 12.830671 12.790810 13.478447 12.305198 11.162629 13.553250
13.135642 12.394387 11.897065 13.326515 14.186975 13.858019 11.659134
12.461467 13.419657 15.044540 14.662741 12.931674 14.325060 13.827152
15.056094 16.177062  8.664223  8.505057  8.139616  8.450066  7.603516
 9.358705  9.465014  9.248157  8.575560  8.550834 10.321278 10.500976
 9.854307  9.740979  9.573484 11.657536 11.275658 10.328700 10.495659
10.291819 12.483454 12.568050 11.964447 12.333010 12.245301 12.012555
13.069437 13.873826 13.087302 13.519167 15.167916 14.895356 14.152593
13.833480 14.725001 15.277242 13.599821 14.745121 15.667217 15.853457
11.249238 11.393806 11.286871 11.457446 11.146169 11.975341 11.825872
12.096623 12.045461 12.553779 13.287375 13.202286 13.008260 13.323130
13.901698 13.944902 13.994548 14.464010 14.275399 14.373038 10.571229
10.276635  9.113214  9.712809  9.989706 11.021993 12.231314 10.953608
11.777704 10.509515 11.717405 11.358187 10.114514 12.040672 10.704138
12.361904 13.438045 11.421919 13.329136 12.671538 12.589187  7.699087
10.224869 11.890204 12.674097 10.903754 10.331917 13.864581 10.077775
11.031115  7.959504 13.820657 11.362952  9.291874 11.164521 13.467318
12.233128 14.775502 13.545118 11.700067  9.932900 10.029764  9.463546
 8.984497  8.468266 11.430784 10.910020 10.508334 10.150945  9.682426
12.237907 12.090654 11.734881 11.311478 10.787399 13.744614 12.943496
12.700399 12.647643 11.844425 11.815664 11.780271 11.620893 11.434957
11.504724 12.764290 12.947289 12.866306 12.627174 12.484254 13.851463
13.895960 13.881047 13.582090 13.610900 14.871512 14.924994 14.962869
14.882819 14.926455 13.654920 14.132701 14.308889 14.533347 14.880582
14.807815 14.981091 15.500260 15.674117 16.121717 15.762383 15.927011
16.383787 16.714126 17.201732 16.818871 17.080464 17.456783 17.734980
18.156988 11.475435 11.292394 11.120074 10.976685 10.994756 12.467297
12.384416 12.283456 12.143201 11.990700 13.598999 13.542387 13.326507
13.209219 13.066237 14.788354 14.544457 14.429778 14.325824 14.101715
 9.803987  9.696783  9.835128  9.793659  9.924075 10.674955 10.629635
10.687013 10.841140 10.871288 11.726620 11.691248 11.654972 11.731460
11.923179 12.560324 12.675074 12.718955 12.921882 12.721560  8.527586
 7.667373 11.823627 11.043756  8.904854  8.891162 12.275355 11.034485
10.467970 12.238359 11.238691 12.466521 12.048304 12.468083  9.552947
13.631952 12.133213 11.878518 12.748803 14.467623
      </TextString>
      <TextDataSource name="grid.values.realisations.resource" count="1" length="2000"/>
    </TextInlineResource>
  </Region>
</Fieldml>
